#    s        x        y     Ue/Vinf    Dstar     Theta      Cf       H
   0.00000  1.00000  0.00000  1.09039  0.161986  0.012003 -0.000000    13.496
   0.00707  0.99317  0.00183  1.09141  0.159161  0.011830 -0.000000    13.455
   0.01871  0.98192  0.00481  1.09320  0.155443  0.011534 -0.000000    13.476
   0.03176  0.96929  0.00811  1.09524  0.151326  0.011205 -0.000000    13.505
   0.04640  0.95512  0.01175  1.09759  0.146728  0.010840 -0.000000    13.536
   0.06256  0.93944  0.01571  1.10024  0.141676  0.010440 -0.000000    13.570
   0.07989  0.92263  0.01991  1.10315  0.136277  0.010019 -0.000000    13.602
   0.09790  0.90516  0.02427  1.10626  0.130624  0.009589 -0.000000    13.623
   0.11632  0.88730  0.02879  1.10951  0.124731  0.009159 -0.000000    13.619
   0.13516  0.86905  0.03347  1.11291  0.118591  0.008731 -0.000000    13.582
   0.15438  0.85044  0.03826  1.11648  0.112243  0.008308 -0.000001    13.510
   0.17384  0.83159  0.04311  1.12019  0.105770  0.007893 -0.000001    13.400
   0.19339  0.81265  0.04795  1.12400  0.099235  0.007492 -0.000001    13.246
   0.21289  0.79376  0.05277  1.12791  0.092687  0.007109 -0.000001    13.038
   0.23226  0.77498  0.05753  1.13187  0.086165  0.006747 -0.000001    12.772
   0.25146  0.75636  0.06220  1.13588  0.079711  0.006407 -0.000001    12.441
   0.27049  0.73787  0.06675  1.13993  0.073354  0.006090 -0.000001    12.045
   0.28939  0.71951  0.07118  1.14401  0.067108  0.005797 -0.000001    11.576
   0.30816  0.70124  0.07549  1.14811  0.060994  0.005528 -0.000001    11.034
   0.32681  0.68305  0.07966  1.15222  0.055022  0.005282 -0.000001    10.417
   0.34536  0.66495  0.08368  1.15632  0.049215  0.005060 -0.000001     9.726
   0.36378  0.64693  0.08755  1.16041  0.043595  0.004861 -0.000001     8.967
   0.38208  0.62901  0.09125  1.16447  0.038180  0.004685 -0.000001     8.149
   0.40025  0.61119  0.09478  1.16849  0.033004  0.004531 -0.000001     7.283
   0.41830  0.59346  0.09812  1.17240  0.028091  0.004400 -0.000001     6.385
   0.43623  0.57580  0.10126  1.17609  0.023473  0.004291 -0.000001     5.470
   0.45406  0.55822  0.10421  1.17919  0.019182  0.004213 -0.000001     4.553
   0.47178  0.54072  0.10695  1.17966  0.015283  0.004203  0.000001     3.636
   0.48938  0.52329  0.10947  1.17681  0.011865  0.004256  0.000115     2.788
   0.50687  0.50596  0.11177  1.20051  0.009030  0.003885  0.000384     2.325
   0.52422  0.48873  0.11383  1.23853  0.006908  0.003407  0.000744     2.027
   0.54144  0.47160  0.11566  1.28460  0.005406  0.002947  0.001172     1.835
   0.55854  0.45458  0.11723  1.33308  0.004365  0.002556  0.001628     1.708
   0.57552  0.43765  0.11854  1.38038  0.003636  0.002242  0.002082     1.622
   0.59241  0.42079  0.11958  1.42506  0.003110  0.001990  0.002518     1.563
   0.60919  0.40402  0.12036  1.46699  0.002712  0.001785  0.002935     1.519
   0.62586  0.38737  0.12086  1.50611  0.002404  0.001617  0.003330     1.487
   0.64237  0.37085  0.12107  1.54320  0.002154  0.001474  0.003712     1.462
   0.65876  0.35447  0.12099  1.57761  0.001952  0.001353  0.004070     1.442
   0.67508  0.33815  0.12060  1.60902  0.001788  0.001251  0.004395     1.428
   0.69140  0.32184  0.11990  1.63730  0.001654  0.001165  0.004680     1.419
   0.70778  0.30550  0.11890  1.66452  0.001536  0.001087  0.004952     1.412
   0.72418  0.28915  0.11761  1.69186  0.001427  0.001014  0.005230     1.407
   0.74055  0.27285  0.11604  1.71899  0.001326  0.000946  0.005508     1.402
   0.75684  0.25667  0.11419  1.74692  0.001231  0.000881  0.005802     1.397
   0.77302  0.24063  0.11205  1.77393  0.001145  0.000821  0.006083     1.395
   0.78911  0.22473  0.10963  1.80159  0.001064  0.000764  0.006376     1.393
   0.80508  0.20899  0.10692  1.82911  0.000988  0.000710  0.006663     1.392
   0.82091  0.19345  0.10393  1.85793  0.000916  0.000658  0.006971     1.392
   0.83653  0.17817  0.10068  1.88780  0.000846  0.000608  0.007295     1.392
   0.85187  0.16322  0.09718  1.91928  0.000779  0.000559  0.007645     1.393
   0.86688  0.14868  0.09345  1.95208  0.000715  0.000513  0.008015     1.394
   0.88150  0.13461  0.08952  1.98822  0.000651  0.000467  0.008450     1.395
   0.89564  0.12108  0.08540  2.02618  0.000590  0.000423  0.008921     1.396
   0.90915  0.10825  0.08115  2.06631  0.000533  0.000381  0.009441     1.397
   0.92189  0.09627  0.07684  2.10706  0.000480  0.000343  0.009978     1.399
   0.93373  0.08523  0.07255  2.15091  0.000430  0.000307  0.010600     1.400
   0.94460  0.07520  0.06834  2.19519  0.000385  0.000274  0.011251     1.402
   0.95449  0.06620  0.06427  2.24105  0.000343  0.000244  0.011970     1.403
   0.96343  0.05816  0.06036  2.28708  0.000306  0.000218  0.012724     1.405
   0.97149  0.05101  0.05664  2.33419  0.000272  0.000194  0.013543     1.406
   0.97880  0.04462  0.05308  2.37850  0.000244  0.000173  0.014289     1.410
   0.98546  0.03890  0.04968  2.42783  0.000216  0.000153  0.015208     1.413
   0.99154  0.03377  0.04642  2.47587  0.000192  0.000135  0.016080     1.418
   0.99709  0.02917  0.04331  2.52523  0.000170  0.000119  0.016966     1.426
   1.00216  0.02505  0.04035  2.57635  0.000151  0.000105  0.017854     1.436
   1.00678  0.02138  0.03754  2.63316  0.000132  0.000091  0.018902     1.446
   1.01101  0.01809  0.03488  2.70397  0.000112  0.000078  0.020601     1.448
   1.01488  0.01516  0.03235  2.78664  0.000093  0.000065  0.023212     1.438
   1.01845  0.01256  0.02991  2.86954  0.000075  0.000053  0.026671     1.418
   1.02175  0.01025  0.02754  2.93693  0.000061  0.000044  0.030580     1.394
   1.02484  0.00822  0.02522  2.99381  0.000048  0.000035  0.035428     1.363
   1.02775  0.00643  0.02293  3.01598  0.000041  0.000029  0.035512     1.405
   1.03050  0.00484  0.02068  3.02477  0.000044  0.000025  0.019576     1.792
   1.03310  0.00343  0.01850  3.24015  0.000114  0.000015 -0.000891     7.389
   1.03556  0.00219  0.01637  3.26590  0.000053  0.000015  0.000576     3.599
   1.03792  0.00117  0.01424  3.34788  0.000033  0.000013  0.007248     2.625
   1.04022  0.00038  0.01208  3.36327  0.000028  0.000011  0.009826     2.488
   1.04246 -0.00018  0.00992  3.34574  0.000026  0.000011  0.011360     2.435
   1.04465 -0.00054  0.00776  3.30842  0.000024  0.000010  0.012336     2.414
   1.04679 -0.00069  0.00562  3.25865  0.000022  0.000009  0.013571     2.384
   1.04891 -0.00063  0.00351  3.18938  0.000021  0.000009  0.014517     2.367
   1.05100 -0.00034  0.00143  3.09621  0.000019  0.000008  0.016930     2.285
   1.05309  0.00018 -0.00060  2.94178  0.000017  0.000008  0.017963     2.228
   1.05523  0.00096 -0.00258  2.73738  0.000017  0.000008  0.017736     2.183
   1.05744  0.00199 -0.00454  2.50124  0.000018  0.000008  0.015913     2.168
   1.05976  0.00326 -0.00648  2.26291  0.000019  0.000009  0.013851     2.156
   1.06221  0.00479 -0.00840  2.03181  0.000020  0.000009  0.011644     2.155
   1.06482  0.00656 -0.01032  1.81703  0.000021  0.000010  0.009731     2.153
   1.06757  0.00855 -0.01221  1.62086  0.000023  0.000011  0.007990     2.160
   1.07045  0.01075 -0.01407  1.44802  0.000025  0.000011  0.006563     2.173
   1.07350  0.01317 -0.01592  1.29502  0.000026  0.000012  0.005407     2.195
   1.07674  0.01585 -0.01775  1.15241  0.000027  0.000012  0.004716     2.180
   1.08022  0.01883 -0.01955  1.00879  0.000029  0.000013  0.003884     2.181
   1.08397  0.02213 -0.02132  0.87116  0.000031  0.000014  0.003175     2.172
   1.08805  0.02582 -0.02307  0.73889  0.000033  0.000015  0.002485     2.168
   1.09253  0.02994 -0.02483  0.61865  0.000037  0.000017  0.001857     2.186
   1.09747  0.03453 -0.02665  0.51073  0.000040  0.000018  0.001425     2.182
   1.10294  0.03966 -0.02854  0.41231  0.000044  0.000020  0.001018     2.219
   1.10901  0.04541 -0.03049  0.31967  0.000045  0.000021  0.000781     2.185
   1.11575  0.05185 -0.03249  0.23014  0.000051  0.000023  0.000484     2.230
   1.12324  0.05905 -0.03455  0.14832  0.000053  0.000024  0.000308     2.205
   1.13162  0.06715 -0.03668  0.06872  0.000059  0.000027  0.000124     2.230
   1.14102  0.07630 -0.03886 -0.00676  0.000059  0.000027  0.000012     2.230
   1.15156  0.08660 -0.04110 -0.07840  0.000067  0.000030  0.000123     2.236
   1.16332  0.09813 -0.04337 -0.14639  0.000070  0.000032  0.000220     2.235
   1.17625  0.11087 -0.04561 -0.21006  0.000076  0.000034  0.000286     2.257
   1.19028  0.12473 -0.04777 -0.26946  0.000081  0.000036  0.000350     2.248
   1.20527  0.13959 -0.04982 -0.32311  0.000087  0.000039  0.000380     2.270
   1.22101  0.15521 -0.05172 -0.37203  0.000092  0.000041  0.000419     2.261
   1.23726  0.17136 -0.05347 -0.41728  0.000097  0.000043  0.000443     2.268
   1.25385  0.18788 -0.05502 -0.45829  0.000102  0.000045  0.000461     2.272
   1.27066  0.20464 -0.05637 -0.49583  0.000106  0.000047  0.000477     2.274
   1.28765  0.22159 -0.05749 -0.52972  0.000111  0.000049  0.000483     2.282
   1.30481  0.23872 -0.05839 -0.56014  0.000116  0.000051  0.000486     2.289
   1.32212  0.25602 -0.05908 -0.58817  0.000121  0.000053  0.000490     2.290
   1.33954  0.27344 -0.05956 -0.61428  0.000125  0.000055  0.000494     2.291
   1.35703  0.29092 -0.05983 -0.63858  0.000129  0.000056  0.000496     2.293
   1.37450  0.30839 -0.05990 -0.66066  0.000134  0.000058  0.000492     2.300
   1.39189  0.32578 -0.05975 -0.68211  0.000137  0.000060  0.000501     2.292
   1.40918  0.34307 -0.05937 -0.70103  0.000142  0.000062  0.000490     2.306
   1.42644  0.36032 -0.05875 -0.71751  0.000148  0.000064  0.000477     2.320
   1.44380  0.37765 -0.05788 -0.73108  0.000155  0.000066  0.000453     2.343
   1.46134  0.39516 -0.05677 -0.74258  0.000162  0.000069  0.000432     2.360
   1.47906  0.41283 -0.05544 -0.75352  0.000168  0.000071  0.000424     2.361
   1.49692  0.43062 -0.05392 -0.76291  0.000174  0.000074  0.000407     2.373
   1.51487  0.44849 -0.05221 -0.77142  0.000181  0.000076  0.000395     2.380
   1.53295  0.46647 -0.05030 -0.77833  0.000189  0.000079  0.000375     2.397
   1.55119  0.48459 -0.04822 -0.78414  0.000197  0.000082  0.000357     2.412
   1.56962  0.50288 -0.04597 -0.78904  0.000205  0.000085  0.000340     2.425
   1.58821  0.52132 -0.04357 -0.79312  0.000213  0.000087  0.000324     2.439
   1.60696  0.53990 -0.04103 -0.79661  0.000222  0.000090  0.000310     2.449
   1.62585  0.55861 -0.03838 -0.79927  0.000231  0.000094  0.000294     2.465
   1.64492  0.57747 -0.03561 -0.80126  0.000240  0.000097  0.000279     2.481
   1.66415  0.59648 -0.03275 -0.80280  0.000249  0.000100  0.000265     2.494
   1.68354  0.61565 -0.02982 -0.80375  0.000259  0.000103  0.000251     2.511
   1.70305  0.63494 -0.02684 -0.80480  0.000268  0.000106  0.000242     2.515
   1.72262  0.65427 -0.02383 -0.80502  0.000278  0.000110  0.000228     2.534
   1.74216  0.67358 -0.02082 -0.80498  0.000289  0.000113  0.000216     2.550
   1.76159  0.69278 -0.01784 -0.80462  0.000299  0.000117  0.000205     2.566
   1.78083  0.71180 -0.01494 -0.80374  0.000311  0.000120  0.000192     2.589
   1.79984  0.73059 -0.01213 -0.80302  0.000321  0.000123  0.000183     2.600
   1.81861  0.74917 -0.00945 -0.80236  0.000330  0.000126  0.000177     2.606
   1.83717  0.76756 -0.00690 -0.80243  0.000334  0.000129  0.000178     2.591
   1.85554  0.78578 -0.00452 -0.80237  0.000340  0.000132  0.000176     2.585
   1.87365  0.80375 -0.00231 -0.80247  0.000345  0.000134  0.000175     2.577
   1.89138  0.82137 -0.00030 -0.80283  0.000349  0.000136  0.000175     2.564
   1.90871  0.83861  0.00147 -0.80367  0.000351  0.000138  0.000179     2.544
   1.92572  0.85555  0.00297 -0.80608  0.000345  0.000138  0.000193     2.492
   1.94249  0.87228  0.00422 -0.81050  0.000333  0.000138  0.000217     2.417
   1.95899  0.88874  0.00521 -0.81564  0.000322  0.000137  0.000240     2.356
   1.97495  0.90468  0.00595 -0.81978  0.000318  0.000137  0.000250     2.331
   1.99007  0.91980  0.00639 -0.82290  0.000319  0.000137  0.000251     2.327
   2.00423  0.93396  0.00646 -0.82888  0.000309  0.000136  0.000274     2.277
   2.01748  0.94720  0.00613 -0.84111  0.000282  0.000130  0.000337     2.164
   2.02992  0.95963  0.00540 -0.86340  0.000242  0.000120  0.000459     2.007
   2.04171  0.97137  0.00431 -0.89840  0.000198  0.000107  0.000653     1.853
   2.05295  0.98252  0.00291 -0.95032  0.000157  0.000091  0.000951     1.724
   2.06372  0.99316  0.00124 -1.05226  0.000108  0.000068  0.001662     1.583
   2.07068  1.00000  0.00000 -1.09039  0.000106  0.000065  0.003368     1.634
   2.07068  1.00010 -0.00002  1.09039  0.162093  0.012068  0.000000    13.432
   2.07769  1.00698 -0.00137  1.08788  0.160875  0.012496  0.000000    12.874
   2.08586  1.01507 -0.00254  1.08500  0.160548  0.012989  0.000000    12.360
   2.09537  1.02452 -0.00362  1.08161  0.160117  0.013574  0.000000    11.796
   2.10645  1.03555 -0.00461  1.07761  0.159483  0.014271  0.000000    11.176
   2.11934  1.04841 -0.00551  1.07287  0.158538  0.015102  0.000000    10.498
   2.13436  1.06341 -0.00627  1.06724  0.157172  0.016097  0.000000     9.764
   2.15185  1.08089 -0.00683  1.06054  0.155255  0.017292  0.000000     8.979
   2.17221  1.10125 -0.00713  1.05253  0.152635  0.018733  0.000000     8.148
   2.19592  1.12496 -0.00707  1.04291  0.149122  0.020482  0.000000     7.281
   2.22353  1.15256 -0.00653  1.03125  0.144494  0.022620  0.000000     6.388
   2.25568  1.18469 -0.00536  1.01694  0.138491  0.025273  0.000000     5.480
   2.29311  1.22207 -0.00338  0.99887  0.130842  0.028664  0.000000     4.565
   2.33670  1.26556 -0.00034  0.97360  0.121453  0.033508  0.000000     3.625
   2.38746  1.31613  0.00403  0.93740  0.110414  0.040754  0.000000     2.709
   2.44657  1.37492  0.01008  0.92074  0.097258  0.044144  0.000000     2.203
   2.51539  1.44326  0.01823  0.91410  0.084111  0.045450  0.000000     1.851
   2.59553  1.52267  0.02900  0.91591  0.072278  0.045115  0.000000     1.602
   2.68885  1.61494  0.04298  0.92349  0.062543  0.043828  0.000000     1.427
   2.79751  1.72211  0.06091  0.93377  0.055043  0.042225  0.000000     1.304
   2.92405  1.84659  0.08364  0.94457  0.049448  0.040672  0.000000     1.216
   3.07138  1.99113  0.11219  0.96440  0.043711  0.038069  0.000000     1.148
